 1.956184014867E+03 # surface pressure
 2400 # surface pressure
# r rho (dimensional)
 0.000000000000E+00 6.687355827215E+01
 1.526648700425E+08 6.687049399584E+01
 3.053224416471E+08 6.686130257195E+01
 4.579732175656E+08 6.684598716974E+01
 6.106116306301E+08 6.682455351109E+01
 7.632354759461E+08 6.679700902926E+01
 9.158395792795E+08 6.676336392782E+01
 1.068420961325E+09 6.672363004614E+01
 1.220975711662E+09 6.667782166755E+01
 1.373499820314E+09 6.662595530871E+01
 1.525989305668E+09 6.656804954098E+01
 1.678441565597E+09 6.650412456599E+01
 1.830851119764E+09 6.643420396500E+01
 1.983215496912E+09 6.635831204213E+01
 2.135530201307E+09 6.627647606839E+01
 2.287792600289E+09 6.618872447228E+01
 2.439997141813E+09 6.609508944015E+01
 2.592142017054E+09 6.599560285849E+01
 2.744221638491E+09 6.589030095376E+01
 2.896234833130E+09 6.577921896304E+01
 3.048174954467E+09 6.566239805634E+01
 3.200040548383E+09 6.553987743910E+01
 3.351826797277E+09 6.541170068675E+01
 3.503530148865E+09 6.527791226104E+01
 3.655148750675E+09 6.513855691479E+01
 3.806675652082E+09 6.499368593687E+01
 3.958110326868E+09 6.484334630869E+01
 4.109447345433E+09 6.468759133429E+01
 4.260683271826E+09 6.452647410695E+01
 4.411816941803E+09 6.436004688365E+01
 4.562840863433E+09 6.418837055133E+01
 4.713754072262E+09 6.401150031508E+01
 4.864553295329E+09 6.382949527673E+01
 5.015232650670E+09 6.364241924296E+01
 5.165792221205E+09 6.345033015604E+01
 5.316225146988E+09 6.325329618888E+01
 5.466527244704E+09 6.305138370020E+01
 5.616697997797E+09 6.284465524793E+01
 5.766727730826E+09 6.263318723444E+01
 5.916613964220E+09 6.241704763447E+01
 6.066355508662E+09 6.219630369694E+01
 6.215944762621E+09 6.197103338970E+01
 6.365381086009E+09 6.174130542651E+01
 6.514661969875E+09 6.150719199179E+01
 6.663779678508E+09 6.126877450946E+01
 6.812734268122E+09 6.102612329795E+01
 6.961523709269E+09 6.077931318429E+01
 7.110144361270E+09 6.052842297341E+01
 7.258596735827E+09 6.027352529959E+01
 7.406876887076E+09 6.001470063742E+01
 7.554981201924E+09 5.975202903201E+01
 7.702910102376E+09 5.948558339294E+01
 7.850655772047E+09 5.921545190575E+01
 7.998214452876E+09 5.894171648282E+01
 8.145585958552E+09 5.866445315884E+01
 8.292760593734E+09 5.838375649114E+01
 8.439736168116E+09 5.809970738608E+01
 8.586511962474E+09 5.781238393778E+01
 8.733081609020E+09 5.752187556957E+01
 8.879445054133E+09 5.722825971533E+01
 9.025599719356E+09 5.693161909772E+01
 9.171539716038E+09 5.663204351231E+01
 9.317265728749E+09 5.632960948362E+01
 9.462771949679E+09 5.602440712532E+01
 9.608055031375E+09 5.571652185289E+01
 9.753114719557E+09 5.540603263094E+01
 9.897943982708E+09 5.509303275700E+01
 1.004254250499E+10 5.477760070587E+01
 1.018690761574E+10 5.445981956890E+01
 1.033103557621E+10 5.413977477303E+01
 1.047492649263E+10 5.381754336782E+01
 1.061857437523E+10 5.349321600366E+01
 1.076197905222E+10 5.316686982581E+01
 1.090513690040E+10 5.283858916044E+01
 1.104804583369E+10 5.250845459890E+01
 1.119070350165E+10 5.217654737526E+01
 1.133310464207E+10 5.184295530586E+01
 1.147524797776E+10 5.150775613791E+01
 1.161712757360E+10 5.117103793014E+01
 1.175874268755E+10 5.083287651104E+01
 1.190008956463E+10 5.049335479741E+01
 1.204116661334E+10 5.015254934038E+01
 1.218197001422E+10 4.981054102965E+01
 1.232249985324E+10 4.946740267777E+01
 1.246275642253E+10 4.912320831085E+01
 1.260273941116E+10 4.877803089258E+01
 1.274244571504E+10 4.843194630656E+01
 1.288186996158E+10 4.808503641566E+01
 1.302100655042E+10 4.773738303230E+01
 1.315985360479E+10 4.738905783068E+01
 1.329825983381E+10 4.704036331763E+01
 1.343496232041E+10 4.669336125832E+01
 1.356978578704E+10 4.634841456667E+01
 1.370286617566E+10 4.600537451717E+01
 1.383431382466E+10 4.566414228886E+01
 1.396424159339E+10 4.532459854180E+01
 1.409273237781E+10 4.498668884979E+01
 1.421989411550E+10 4.465028099755E+01
 1.434577185948E+10 4.431539874618E+01
 1.447046890856E+10 4.398190240991E+01
 1.459404478213E+10 4.364976031834E+01
 1.471653038986E+10 4.331901107611E+01
 1.483801233074E+10 4.298953628072E+01
 1.495854674387E+10 4.266129247519E+01
 1.507815546076E+10 4.233432346753E+01
 1.519687089688E+10 4.200863869405E+01
 1.531477068545E+10 4.168411733191E+01
 1.543187951969E+10 4.136077818742E+01
 1.554821310803E+10 4.103866059043E+01
 1.566379099276E+10 4.071778959417E+01
 1.577867471641E+10 4.039806997118E+01
 1.589288941459E+10 4.007950429196E+01
 1.600644664115E+10 3.976213056655E+01
 1.611935762115E+10 3.944598563286E+01
 1.623164516554E+10 3.913107175992E+01
 1.634336290867E+10 3.881730234524E+01
 1.645452344129E+10 3.850470365116E+01
 1.656513501869E+10 3.819331218204E+01
 1.667520569431E+10 3.788316309448E+01
 1.678474627231E+10 3.757428189211E+01
 1.689380293607E+10 3.726659237407E+01
 1.700239394890E+10 3.696009523710E+01
 1.711052522507E+10 3.665482441051E+01
 1.721820255471E+10 3.635081264345E+01
 1.732543160740E+10 3.604809153592E+01
 1.743222316694E+10 3.574667680187E+01
 1.753861813124E+10 3.544649781943E+01
 1.764462757856E+10 3.514756689669E+01
 1.775025566947E+10 3.484991462635E+01
 1.785550649027E+10 3.455357060290E+01
 1.796038405476E+10 3.425856345726E+01
 1.806489236509E+10 3.396492072800E+01
 1.816905930257E+10 3.367260190365E+01
 1.827290773318E+10 3.338157985765E+01
 1.837644056085E+10 3.309188264171E+01
 1.847966064562E+10 3.280353749695E+01
 1.858257080460E+10 3.251657084897E+01
 1.868517381288E+10 3.223100829355E+01
 1.878747260854E+10 3.194687400952E+01
 1.888949383038E+10 3.166412558464E+01
 1.899125608509E+10 3.138274241343E+01
 1.909276133476E+10 3.110274921655E+01
 1.919401151685E+10 3.082416982448E+01
 1.929500854459E+10 3.054702718095E+01
 1.939575430741E+10 3.027134335772E+01
 1.949625067135E+10 2.999713957881E+01
 1.959650683618E+10 2.972441627031E+01
 1.969655093586E+10 2.945312200640E+01
 1.979638668443E+10 2.918327139926E+01
 1.989601537823E+10 2.891488490480E+01
 1.999543830020E+10 2.864798228763E+01
 2.009465672009E+10 2.838258262446E+01
 2.019367189466E+10 2.811870429535E+01
 2.029248506783E+10 2.785636496312E+01
 2.039110514706E+10 2.759556128322E+01
 2.048955590025E+10 2.733625036126E+01
 2.058783968142E+10 2.707844549543E+01
 2.068595733727E+10 2.682216310559E+01
 2.078390970733E+10 2.656741872008E+01
 2.088169762411E+10 2.631422694623E+01
 2.097932191315E+10 2.606260145242E+01
 2.107678339310E+10 2.581255496377E+01
 2.117408391802E+10 2.556409661727E+01
 2.127123980647E+10 2.531719800667E+01
 2.136825688115E+10 2.507185709019E+01
 2.146513573536E+10 2.482808437968E+01
 2.156187695818E+10 2.458588961948E+01
 2.165848113453E+10 2.434528184369E+01
 2.175494884521E+10 2.410626943439E+01
 2.185128066691E+10 2.386886017763E+01
 2.194747717227E+10 2.363306131451E+01
 2.204354094448E+10 2.339887468776E+01
 2.213948354028E+10 2.316628008125E+01
 2.223530708386E+10 2.293528010887E+01
 2.233101201733E+10 2.270588107128E+01
 2.242659878004E+10 2.247808886133E+01
 2.252206780864E+10 2.225190896889E+01
 2.261741953711E+10 2.202734648138E+01
 2.271265439674E+10 2.180440608207E+01
 2.280777281623E+10 2.158309204794E+01
 2.290277615310E+10 2.136340610147E+01
 2.299767447330E+10 2.114532965832E+01
 2.309247067471E+10 2.092886060426E+01
 2.318716508626E+10 2.071400238613E+01
 2.328175803517E+10 2.050075806878E+01
 2.337624984688E+10 2.028913034952E+01
 2.347064084509E+10 2.007912157475E+01
 2.356493135180E+10 1.987073375734E+01
 2.365912168728E+10 1.966396859379E+01
 2.375321217012E+10 1.945882747964E+01
 2.384720841510E+10 1.925530009063E+01
 2.394111813211E+10 1.905337164981E+01
 2.403494161108E+10 1.885304333759E+01
 2.412867908916E+10 1.865431617113E+01
 2.422233080241E+10 1.845719088844E+01
 2.431589698580E+10 1.826166794145E+01
 2.440937787325E+10 1.806774748637E+01
 2.450277369761E+10 1.787542937263E+01
 2.459608469065E+10 1.768471313142E+01
 2.468931125806E+10 1.749559761169E+01
 2.478246136941E+10 1.730806616431E+01
 2.487553936422E+10 1.712210949596E+01
 2.496854540972E+10 1.693772646047E+01
 2.506147967253E+10 1.675491556711E+01
 2.515434231858E+10 1.657367498754E+01
 2.524713351319E+10 1.639400256713E+01
 2.533985342103E+10 1.621589584006E+01
 2.543250220616E+10 1.603935204721E+01
 2.552508003199E+10 1.586436815608E+01
 2.561758727126E+10 1.569094048938E+01
 2.571003075032E+10 1.551905319887E+01
 2.580241378322E+10 1.534869707997E+01
 2.589473648837E+10 1.517986874071E+01
 2.598699898381E+10 1.501256459894E+01
 2.607920138717E+10 1.484678089039E+01
 2.617134381574E+10 1.468251367220E+01
 2.626342638638E+10 1.451975882205E+01
 2.635544921560E+10 1.435851203313E+01
 2.644741241953E+10 1.419876880552E+01
 2.653931613133E+10 1.404052440497E+01
 2.663116548206E+10 1.388376538800E+01
 2.672296451394E+10 1.372848021557E+01
 2.681471330960E+10 1.357466394721E+01
 2.690641195141E+10 1.342231138144E+01
 2.699806052154E+10 1.327141704618E+01
 2.708965910191E+10 1.312197519261E+01
 2.718120777425E+10 1.297397979294E+01
 2.727270662004E+10 1.282742454240E+01
 2.736415572055E+10 1.268230286578E+01
 2.745555515683E+10 1.253860792801E+01
 2.754690642108E+10 1.239633046078E+01
 2.763821254826E+10 1.225545868110E+01
 2.772947369894E+10 1.211598514093E+01
 2.782068993953E+10 1.197790235022E+01
 2.791186133627E+10 1.184120265167E+01
 2.800298795523E+10 1.170587824208E+01
 2.809406986233E+10 1.157192119238E+01
 2.818510712331E+10 1.143932346563E+01
 2.827609980375E+10 1.130807693222E+01
 2.836704796910E+10 1.117817338199E+01
 2.845795187241E+10 1.104960426865E+01
 2.854881295506E+10 1.092235933379E+01
 2.863963155436E+10 1.079642985365E+01
 2.873040772984E+10 1.067180743313E+01
 2.882114154092E+10 1.054848360833E+01
 2.891183304683E+10 1.042644984200E+01
 2.900248230671E+10 1.030569751808E+01
 2.909308937954E+10 1.018621793606E+01
 2.918365432416E+10 1.006800230560E+01
 2.927417719928E+10 9.951041742450E+00
 2.936465806317E+10 9.835327266099E+00
 2.945509691810E+10 9.720849869152E+00
 2.954549378078E+10 9.607600427427E+00
 2.963584870966E+10 9.495569671214E+00
 2.972616176304E+10 9.384748245226E+00
 2.981643299909E+10 9.275126716812E+00
 2.990666247584E+10 9.166695585930E+00
 2.999685025119E+10 9.059445296449E+00
 3.008699638290E+10 8.953366248321E+00
 3.017710092862E+10 8.848448810084E+00
 3.026716394584E+10 8.744683331196E+00
 3.035718494363E+10 8.642060775413E+00
 3.044716249052E+10 8.540573138340E+00
 3.053709656536E+10 8.440210791458E+00
 3.062698723112E+10 8.340964030710E+00
 3.071683455058E+10 8.242823178407E+00
 3.080663858640E+10 8.145778586615E+00
 3.089639940106E+10 8.049820638587E+00
 3.098611705691E+10 7.954939748400E+00
 3.107579161615E+10 7.861126359016E+00
 3.116542314083E+10 7.768370939073E+00
 3.125501147709E+10 7.676664198382E+00
 3.134455483607E+10 7.585998500435E+00
 3.143405286081E+10 7.496364713265E+00
 3.152350562009E+10 7.407753275779E+00
 3.161291318254E+10 7.320154632111E+00
 3.170227561659E+10 7.233559228537E+00
 3.179159299051E+10 7.147957511547E+00
 3.188086537239E+10 7.063339927272E+00
 3.197009283016E+10 6.979696922374E+00
 3.205927543156E+10 6.897018946440E+00
 3.214841315767E+10 6.815296534733E+00
 3.223750350107E+10 6.734522474477E+00
 3.232654533835E+10 6.654688234147E+00
 3.241553874863E+10 6.575784201829E+00
 3.250448381085E+10 6.497800802090E+00
 3.259338060372E+10 6.420728504299E+00
 3.268222920574E+10 6.344557830974E+00
 3.277102969520E+10 6.269279365798E+00
 3.285978215018E+10 6.194883760996E+00
 3.294848664853E+10 6.121361743767E+00
 3.303714322506E+10 6.048704156460E+00
 3.312574946032E+10 5.976903901249E+00
 3.321430398616E+10 5.905953038436E+00
 3.330280689299E+10 5.835842515812E+00
 3.339125827097E+10 5.766563370161E+00
 3.347965821001E+10 5.698106724958E+00
 3.356800679974E+10 5.630463786783E+00
 3.365630412954E+10 5.563625840714E+00
 3.374455028853E+10 5.497584244997E+00
 3.383274536558E+10 5.432330425340E+00
 3.392088932954E+10 5.367855956296E+00
 3.400897983268E+10 5.304154130318E+00
 3.409701601251E+10 5.241217155916E+00
 3.418499796940E+10 5.179036583449E+00
 3.427292580342E+10 5.117604011344E+00
 3.436079961433E+10 5.056911085160E+00
 3.444861950158E+10 4.996949498154E+00
 3.453638556432E+10 4.937710993304E+00
 3.462409790140E+10 4.879187366647E+00
 3.471175661136E+10 4.821370471700E+00
 3.479936110907E+10 4.764252667637E+00
 3.488690864464E+10 4.707827748462E+00
 3.497439901493E+10 4.652087885002E+00
 3.506183233177E+10 4.597025122447E+00
 3.514920870663E+10 4.542631591318E+00
 3.523652825062E+10 4.488899510433E+00
 3.532379107448E+10 4.435821188405E+00
 3.541099728861E+10 4.383389023525E+00
 3.549814700302E+10 4.331595502002E+00
 3.558524026378E+10 4.280433231820E+00
 3.567227492269E+10 4.229896165712E+00
 3.575924997469E+10 4.179977618071E+00
 3.584616554208E+10 4.130670307073E+00
 3.593302174673E+10 4.081967014790E+00
 3.601981871012E+10 4.033860581379E+00
 3.610655655330E+10 3.986343900175E+00
 3.619323539692E+10 3.939409914123E+00
 3.627985536119E+10 3.893051613835E+00
 3.636641655058E+10 3.847262045559E+00
 3.645291693227E+10 3.802035415189E+00
 3.653935511150E+10 3.757365601401E+00
 3.662573122226E+10 3.713245728744E+00
 3.671204539807E+10 3.669668987168E+00
 3.679829777196E+10 3.626628638406E+00
 3.688448847650E+10 3.584118022290E+00
 3.697061764379E+10 3.542130562467E+00
 3.705668540543E+10 3.500659770986E+00
 3.714269170542E+10 3.459699339952E+00
 3.722863425619E+10 3.419244094160E+00
 3.731451245807E+10 3.379288116954E+00
 3.740032645541E+10 3.339825226058E+00
 3.748607639197E+10 3.300849326015E+00
 3.757176241103E+10 3.262354402759E+00
 3.765738465528E+10 3.224334517481E+00
 3.774294326693E+10 3.186783800357E+00
 3.782843838764E+10 3.149696444695E+00
 3.791386883829E+10 3.113067264787E+00
 3.799923323422E+10 3.076891189805E+00
 3.808453172630E+10 3.041162532452E+00
 3.816976446694E+10 3.005875657879E+00
 3.825493160794E+10 2.971024985575E+00
 3.834003330055E+10 2.936604991473E+00
 3.842506969543E+10 2.902610210765E+00
 3.851004094237E+10 2.869035241025E+00
 3.859494576540E+10 2.835875298188E+00
 3.867978297289E+10 2.803125606912E+00
 3.876455272611E+10 2.770780922933E+00
 3.884925518570E+10 2.738836070793E+00
 3.893389051168E+10 2.707285942529E+00
 3.901845886342E+10 2.676125495574E+00
 3.910296039965E+10 2.645349750291E+00
 3.918739493326E+10 2.614953911211E+00
 3.927176078976E+10 2.584933761996E+00
 3.935605786735E+10 2.555284564555E+00
 3.944028633397E+10 2.526001542601E+00
 3.952444635687E+10 2.497079981342E+00
 3.960853810264E+10 2.468515230160E+00
 3.969256173717E+10 2.440302705676E+00
 3.977651712049E+10 2.412437995207E+00
 3.986040291500E+10 2.384917143489E+00
 3.994421909049E+10 2.357735822612E+00
 4.002796582000E+10 2.330889706647E+00
 4.011164327588E+10 2.304374535306E+00
 4.019525162975E+10 2.278186107677E+00
 4.027879104228E+10 2.252320278082E+00
 4.036226067335E+10 2.226773249895E+00
 4.044566002923E+10 2.201541146908E+00
 4.052898928712E+10 2.176619919798E+00
 4.061224862348E+10 2.152005554989E+00
 4.069543821404E+10 2.127694077598E+00
 4.077855818570E+10 2.103681570811E+00
 4.086160761152E+10 2.079964467254E+00
 4.094458621215E+10 2.056539060496E+00
 4.102749416848E+10 2.033401571462E+00
 4.111033166063E+10 2.010548281878E+00
 4.119309886796E+10 1.987975529180E+00
 4.127579530326E+10 1.965679876186E+00
 4.135842044495E+10 1.943657923157E+00
 4.144097447695E+10 1.921906105444E+00
 4.152345758255E+10 1.900420884367E+00
 4.160586986165E+10 1.879198773433E+00
 4.168821058887E+10 1.858236537799E+00
 4.177047970036E+10 1.837530827853E+00
 4.185267738265E+10 1.817078306473E+00
 4.193480375159E+10 1.796875737688E+00
 4.201685836830E+10 1.776920094221E+00
 4.209884127279E+10 1.757208279184E+00
 4.218075264592E+10 1.737737182416E+00
 4.226259222075E+10 1.718503798665E+00
 4.234435991229E+10 1.699505078932E+00
 4.242605581166E+10 1.680737961720E+00
 4.250767966229E+10 1.662199519415E+00
 4.258923149280E+10 1.643886798251E+00
 4.267071117515E+10 1.625796905489E+00
 4.275211860886E+10 1.607927008267E+00
 4.283345369273E+10 1.590274241285E+00
 4.291471634371E+10 1.572835861710E+00
 4.299590657002E+10 1.555609093544E+00
 4.307702411739E+10 1.538591226385E+00
 4.315806915558E+10 1.521779514689E+00
 4.323904149974E+10 1.505171345570E+00
 4.331994093962E+10 1.488764150522E+00
 4.340076767169E+10 1.472555302419E+00
 4.348152177916E+10 1.456542217036E+00
 4.356220270512E+10 1.440722458917E+00
 4.364281050889E+10 1.425093501009E+00
 4.372334538895E+10 1.409652830237E+00
 4.380380752100E+10 1.394397983227E+00
 4.388419636831E+10 1.379326673717E+00
 4.396451177322E+10 1.364436579653E+00
 4.404475393663E+10 1.349725345259E+00
 4.412492305856E+10 1.335190644284E+00
 4.420501932031E+10 1.320830179514E+00
 4.428504209890E+10 1.306641819555E+00
 4.436499114991E+10 1.292623385095E+00
 4.444486667677E+10 1.278772642456E+00
 4.452466888195E+10 1.265087386648E+00
 4.460439796698E+10 1.251565443346E+00
 4.468405402387E+10 1.238204688306E+00
 4.476363619064E+10 1.225003186054E+00
 4.484314440329E+10 1.211958894921E+00
 4.492257886761E+10 1.199069758439E+00
 4.500193978844E+10 1.186333749400E+00
 4.508122736967E+10 1.173748868187E+00
 4.516044181425E+10 1.161313141331E+00
 4.523958272794E+10 1.149024712576E+00
 4.531864936867E+10 1.136881799287E+00
 4.539764193308E+10 1.124882495325E+00
 4.547656062900E+10 1.113024917980E+00
 4.555540566325E+10 1.101307210513E+00
 4.563417724174E+10 1.089727542859E+00
 4.571287556937E+10 1.078284112224E+00
 4.579150051690E+10 1.066975191085E+00
 4.587005110896E+10 1.055799197052E+00
 4.594852745237E+10 1.044754416154E+00
 4.602692975728E+10 1.033839146021E+00
 4.610525823284E+10 1.023051709904E+00
 4.618351308724E+10 1.012390455419E+00
 4.626169452768E+10 1.001853753204E+00
 4.633980276038E+10 9.914399956081E-01
 4.641783757779E+10 9.811476496893E-01
 4.649579799940E+10 9.709752999891E-01
 4.657368416327E+10 9.609213997443E-01
 4.665149628119E+10 9.509844111391E-01
 4.672923456394E+10 9.411628151779E-01
 4.680689922132E+10 9.314551119167E-01
 4.688449046211E+10 9.218598209074E-01
 4.696200849412E+10 9.123754817839E-01
 4.703945351958E+10 9.030006554688E-01
 4.711682476639E+10 8.937340401881E-01
 4.719412170652E+10 8.845743222818E-01
 4.727134455365E+10 8.755201202566E-01
 4.734849352044E+10 8.665700754027E-01
 4.742556881854E+10 8.577228518149E-01
 4.750257065858E+10 8.489771362006E-01
 4.757949925020E+10 8.403316374831E-01
 4.765635480202E+10 8.317850862222E-01
 4.773313752169E+10 8.233362338858E-01
 4.780984713962E+10 8.149839035969E-01
 4.788648279510E+10 8.067269987295E-01
 4.796304466147E+10 7.985643263811E-01
 4.803953295146E+10 7.904947067109E-01
 4.811594787679E+10 7.825169764929E-01
 4.819228964815E+10 7.746299883211E-01
 4.826855847525E+10 7.668326099080E-01
 4.834475456678E+10 7.591237234898E-01
 4.842087813043E+10 7.515022253403E-01
 4.849692937294E+10 7.439670253905E-01
 4.857290793106E+10 7.365171024452E-01
 4.864881294497E+10 7.291514940299E-01
 4.872464460304E+10 7.218691462764E-01
 4.880040311753E+10 7.146690159857E-01
 4.887608869967E+10 7.075500730427E-01
 4.895170155972E+10 7.005113003924E-01
 4.902724190687E+10 6.935516940240E-01
 4.910270994936E+10 6.866702629522E-01
 4.917810589442E+10 6.798660291864E-01
 4.925342994827E+10 6.731380276840E-01
 4.932868225824E+10 6.664853113799E-01
 4.940386179102E+10 6.599070484831E-01
 4.947896825841E+10 6.534023512087E-01
 4.955400187304E+10 6.469702998920E-01
 4.962896284649E+10 6.406099874414E-01
 4.970385138933E+10 6.343205191849E-01
 4.977866771112E+10 6.281010127080E-01
 4.985341202039E+10 6.219505976857E-01
 4.992808452469E+10 6.158684157108E-01
 5.000268543056E+10 6.098536201208E-01
 5.007721494357E+10 6.039053758222E-01
 5.015167326225E+10 5.980228595886E-01
 5.022605952010E+10 5.922053421855E-01
 5.030037313909E+10 5.864520797645E-01
 5.037461433159E+10 5.807622766233E-01
 5.044878330896E+10 5.751351478637E-01
 5.052288028153E+10 5.695699192019E-01
 5.059690545859E+10 5.640658267762E-01
 5.067085904844E+10 5.586221169537E-01
 5.074474125837E+10 5.532380461383E-01
 5.081855229467E+10 5.479128805803E-01
