 1.992596497381E+03 # surface pressure
 2400 # surface pressure
# r rho (dimensional) Gamma1
  0.000000000000E+00  6.705677627963E+01  1.660037208875E+00
  1.525035627651E+08  6.705369845846E+01  1.660037503239E+00
  3.049990263993E+08  6.704446647009E+01  1.660038386244E+00
  4.574875793169E+08  6.702908352091E+01  1.660039857611E+00
  6.099638733723E+08  6.700755533852E+01  1.660041916957E+00
  7.624254960196E+08  6.697988943742E+01  1.660044563668E+00
  9.148674569503E+08  6.694609603851E+01  1.660047797055E+00
  1.067286668795E+09  6.690618708041E+01  1.660051616153E+00
  1.219679178502E+09  6.686017694614E+01  1.660056019923E+00
  1.372041118528E+09  6.680808219726E+01  1.660061007172E+00
  1.524368411022E+09  6.674992155240E+01  1.660066576444E+00
  1.676658401819E+09  6.668571536068E+01  1.660072726245E+00
  1.828905752738E+09  6.661548727146E+01  1.660079454859E+00
  1.981107879362E+09  6.653926178201E+01  1.660086760463E+00
  2.133260365026E+09  6.645706629399E+01  1.660094640987E+00
  2.285360412039E+09  6.636892949670E+01  1.660103094349E+00
  2.437402701044E+09  6.627488362044E+01  1.660112118182E+00
  2.589385258706E+09  6.617496083663E+01  1.660121710130E+00
  2.741302574930E+09  6.606919754484E+01  1.660131867471E+00
  2.893153400892E+09  6.595762924746E+01  1.660142587652E+00
  3.044931101363E+09  6.584029734171E+01  1.660153867616E+00
  3.196634422507E+09  6.571724109253E+01  1.660165704535E+00
  3.348258161467E+09  6.558850465143E+01  1.660178095155E+00
  3.499799156427E+09  6.545413242288E+01  1.660191036265E+00
  3.651255194024E+09  6.531416974213E+01  1.660204524615E+00
  3.802619574843E+09  6.516866795716E+01  1.660218556414E+00
  3.953891874007E+09  6.501767420493E+01  1.660233128317E+00
  4.105066208674E+09  6.486124256583E+01  1.660248236386E+00
  4.256139642097E+09  6.469942594394E+01  1.660263876861E+00
  4.407110620272E+09  6.453227731696E+01  1.660280045996E+00
  4.557971796734E+09  6.435985775590E+01  1.660296739272E+00
  4.708722544335E+09  6.418222236959E+01  1.660313952801E+00
  4.859358884031E+09  6.399943144289E+01  1.660331682299E+00
  5.009875493004E+09  6.381154850500E+01  1.660349923254E+00
  5.160272365223E+09  6.361863194400E+01  1.660368671646E+00
  5.310541731017E+09  6.342075151160E+01  1.660387922307E+00
  5.460680131005E+09  6.321797300841E+01  1.660407670477E+00
  5.610686591512E+09  6.301035999046E+01  1.660427911753E+00
  5.760551551994E+09  6.279798921221E+01  1.660448640589E+00
  5.910273373139E+09  6.258092788909E+01  1.660469852362E+00
  6.059850187957E+09  6.235924463314E+01  1.660491542184E+00
  6.209274461168E+09  6.213301771857E+01  1.660513704190E+00
  6.358545972992E+09  6.190231553449E+01  1.660536333725E+00
  6.507661426944E+09  6.166721189937E+01  1.660559425882E+00
  6.656614081982E+09  6.142778725560E+01  1.660582974808E+00
  6.805404290093E+09  6.118411201022E+01  1.660606974219E+00
  6.954029427979E+09  6.093626253669E+01  1.660631414924E+00
  7.102486651161E+09  6.068431674082E+01  1.660656285484E+00
  7.250776435927E+09  6.042834748812E+01  1.660681574510E+00
  7.398893524762E+09  6.016843769168E+01  1.660707271422E+00
  7.546835038859E+09  5.990466636194E+01  1.660733369202E+00
  7.694600965321E+09  5.963710754138E+01  1.660759864001E+00
  7.842182178494E+09  5.936585242043E+01  1.660786750894E+00
  7.989576062954E+09  5.909098142066E+01  1.660814024618E+00
  8.136781710209E+09  5.881257238513E+01  1.660841678278E+00
  8.283789730596E+09  5.853071977620E+01  1.660869702712E+00
  8.430599166984E+09  5.824550249626E+01  1.660898091403E+00
  8.577208398880E+09  5.795700082398E+01  1.660926839292E+00
  8.723611373992E+09  5.766530416303E+01  1.660955940807E+00
  8.869808541046E+09  5.737048942663E+01  1.660985390359E+00
  9.015796133222E+09  5.707264213214E+01  1.661015179849E+00
  9.161569728052E+09  5.677184938490E+01  1.661045300809E+00
  9.307129836908E+09  5.646818825763E+01  1.661075747538E+00
  9.452469656296E+09  5.616175137725E+01  1.661106515092E+00
  9.597587287044E+09  5.585262164842E+01  1.661137600378E+00
  9.742481372116E+09  5.554088091512E+01  1.661168999262E+00
  9.887144843213E+09  5.522662310579E+01  1.661200704578E+00
  1.003157807748E+10  5.490992554652E+01  1.661232710116E+00
  1.017577704945E+10  5.459087469784E+01  1.661265009310E+00
  1.031973944354E+10  5.426955331725E+01  1.661297596426E+00
  1.046346443289E+10  5.394604098679E+01  1.661330465479E+00
  1.060694621956E+10  5.362042839702E+01  1.661363608644E+00
  1.075018510284E+10  5.329279193265E+01  1.661397020110E+00
  1.089317654021E+10  5.296321841146E+01  1.661430694297E+00
  1.103591969313E+10  5.263178601040E+01  1.661464626416E+00
  1.117841003943E+10  5.229858149775E+01  1.661498809089E+00
  1.132064374122E+10  5.196368977895E+01  1.661533234721E+00
  1.146261831590E+10  5.162719174835E+01  1.661567898542E+00
  1.160432945718E+10  5.128917209903E+01  1.661602796693E+00
  1.174577566205E+10  5.094970897805E+01  1.661637922734E+00
  1.188695402921E+10  5.060888357250E+01  1.661673267946E+00
  1.202786178187E+10  5.026677545363E+01  1.661708829503E+00
  1.216849652237E+10  4.992346276016E+01  1.661744604995E+00
  1.230885836905E+10  4.957901936993E+01  1.661780569832E+00
  1.244894766550E+10  4.923351951204E+01  1.661816680063E+00
  1.258876368862E+10  4.888703641890E+01  1.661852917003E+00
  1.272830243054E+10  4.853964836438E+01  1.661889287514E+00
  1.286755734937E+10  4.819144087998E+01  1.661925780968E+00
  1.300652445550E+10  4.784249182342E+01  1.661962396237E+00
  1.314520194837E+10  4.749287321539E+01  1.661999128523E+00
  1.328322266033E+10  4.714322935047E+01  1.662035752715E+00
  1.341936735844E+10  4.679557573775E+01  1.662071532308E+00
  1.355366099545E+10  4.644995570462E+01  1.662106442401E+00
  1.368623148423E+10  4.610623654600E+01  1.662140554739E+00
  1.381719966479E+10  4.576428910212E+01  1.662173906404E+00
  1.394665834445E+10  4.542404333583E+01  1.662206526306E+00
  1.407470902340E+10  4.508539290206E+01  1.662238463881E+00
  1.420143964691E+10  4.474825520234E+01  1.662269763900E+00
  1.432690127045E+10  4.441263648282E+01  1.662300448280E+00
  1.445120283300E+10  4.407837962265E+01  1.662330545455E+00
  1.457438878610E+10  4.374549196555E+01  1.662360071501E+00
  1.469649585448E+10  4.341399527042E+01  1.662389048374E+00
  1.481761927003E+10  4.308374524944E+01  1.662417515630E+00
  1.493779889491E+10  4.275474084069E+01  1.662445497018E+00
  1.505705645321E+10  4.242702494716E+01  1.662473005865E+00
  1.517543622288E+10  4.210057300204E+01  1.662500055052E+00
  1.529300945868E+10  4.177527983466E+01  1.662526661241E+00
  1.540979439018E+10  4.145118130747E+01  1.662552830628E+00
  1.552580666418E+10  4.112831642615E+01  1.662578572918E+00
  1.564107307732E+10  4.080668949898E+01  1.662603904228E+00
  1.575565548660E+10  4.048620324773E+01  1.662628850124E+00
  1.586957106221E+10  4.016688197090E+01  1.662653425363E+00
  1.598283131266E+10  3.984876352493E+01  1.662677640247E+00
  1.609544741923E+10  3.953188458799E+01  1.662701500566E+00
  1.620745246101E+10  3.921621801719E+01  1.662725012378E+00
  1.631889294147E+10  3.890169635137E+01  1.662748181284E+00
  1.642977787266E+10  3.858835563336E+01  1.662771003655E+00
  1.654011548116E+10  3.827623219766E+01  1.662793476256E+00
  1.664991379254E+10  3.796536102024E+01  1.662815597705E+00
  1.675918908398E+10  3.765575178900E+01  1.662837370804E+00
  1.686798868089E+10  3.734732426236E+01  1.662858806866E+00
  1.697632388926E+10  3.704009846489E+01  1.662879911819E+00
  1.708420060525E+10  3.673410817297E+01  1.662900691648E+00
  1.719162460129E+10  3.642938599362E+01  1.662921152636E+00
  1.729860152970E+10  3.612596339679E+01  1.662941300746E+00
  1.740514846562E+10  3.582383802459E+01  1.662961143455E+00
  1.751130440834E+10  3.552294404195E+01  1.662980691571E+00
  1.761707583788E+10  3.522330659175E+01  1.662999949413E+00
  1.772246690252E+10  3.492495618563E+01  1.663018920949E+00
  1.782748167648E+10  3.462792233247E+01  1.663037610617E+00
  1.793212416176E+10  3.433223357044E+01  1.663056023614E+00
  1.803639995759E+10  3.403791279860E+01  1.663074166291E+00
  1.814034342313E+10  3.374490083054E+01  1.663092050689E+00
  1.824396910207E+10  3.345319367065E+01  1.663109685758E+00
  1.834727989142E+10  3.316281926882E+01  1.663127078510E+00
  1.845027864445E+10  3.287380476362E+01  1.663144235565E+00
  1.855296817157E+10  3.258617648033E+01  1.663161162704E+00
  1.865535124128E+10  3.229995991913E+01  1.663177864499E+00
  1.875743267567E+10  3.201517389885E+01  1.663194344421E+00
  1.885924426785E+10  3.173176131942E+01  1.663210608709E+00
  1.896079748159E+10  3.144972125026E+01  1.663226658785E+00
  1.906209427413E+10  3.116907836366E+01  1.663242493309E+00
  1.916313657809E+10  3.088985644658E+01  1.663258110014E+00
  1.926392630195E+10  3.061207840266E+01  1.663273506041E+00
  1.936446533044E+10  3.033576626554E+01  1.663288678272E+00
  1.946475552500E+10  3.006094122159E+01  1.663303623635E+00
  1.956481196137E+10  2.978758753170E+01  1.663318341266E+00
  1.966465891789E+10  2.951566405073E+01  1.663332831970E+00
  1.976429809401E+10  2.924519083992E+01  1.663347093697E+00
  1.986373078151E+10  2.897618832827E+01  1.663361124911E+00
  1.996295825887E+10  2.870867624772E+01  1.663374924649E+00
  2.006198179140E+10  2.844267363539E+01  1.663388492507E+00
  2.016080263148E+10  2.817819882348E+01  1.663401828631E+00
  2.025942201872E+10  2.791526941727E+01  1.663414933729E+00
  2.035785425993E+10  2.765386759725E+01  1.663427810802E+00
  2.045611901752E+10  2.739396114284E+01  1.663440464090E+00
  2.055421728407E+10  2.713556686792E+01  1.663452896082E+00
  2.065214990300E+10  2.687870109754E+01  1.663465110080E+00
  2.074991771062E+10  2.662337925234E+01  1.663477110288E+00
  2.084752153622E+10  2.636961582012E+01  1.663488901841E+00
  2.094496220216E+10  2.611742433992E+01  1.663500490788E+00
  2.104224052396E+10  2.586681740037E+01  1.663511883996E+00
  2.113936020479E+10  2.561779924939E+01  1.663523089328E+00
  2.123633824997E+10  2.537033949198E+01  1.663534116559E+00
  2.133317780326E+10  2.512444277582E+01  1.663544973958E+00
  2.142987945632E+10  2.488011948389E+01  1.663555669312E+00
  2.152644379658E+10  2.463737924278E+01  1.663566209865E+00
  2.162287140732E+10  2.439623098303E+01  1.663576601965E+00
  2.171916286771E+10  2.415668299977E+01  1.663586850747E+00
  2.181531875283E+10  2.391874301011E+01  1.663596959875E+00
  2.191133963373E+10  2.368241820474E+01  1.663606931361E+00
  2.200722995996E+10  2.344770581452E+01  1.663616765878E+00
  2.210300055592E+10  2.321458735040E+01  1.663626463011E+00
  2.219865242290E+10  2.298306816597E+01  1.663636019729E+00
  2.229418600138E+10  2.275315457725E+01  1.663645431582E+00
  2.238960172913E+10  2.252485250030E+01  1.663654693062E+00
  2.248490004121E+10  2.229816745246E+01  1.663663797971E+00
  2.258008137003E+10  2.207310454949E+01  1.663672739829E+00
  2.267514614534E+10  2.184966850060E+01  1.663681512288E+00
  2.277009479426E+10  2.162786360362E+01  1.663690109530E+00
  2.286492992275E+10  2.140768869321E+01  1.663698526816E+00
  2.295966180022E+10  2.118912468501E+01  1.663706761235E+00
  2.305429196679E+10  2.097217260382E+01  1.663714810468E+00
  2.314882074935E+10  2.075683589283E+01  1.663722673613E+00
  2.324324847308E+10  2.054311760445E+01  1.663730351335E+00
  2.333757546140E+10  2.033102041603E+01  1.663737845816E+00
  2.343180203602E+10  2.012054664793E+01  1.663745160623E+00
  2.352592851693E+10  1.991169828272E+01  1.663752300505E+00
  2.361995522244E+10  1.970447698410E+01  1.663759271147E+00
  2.371388253558E+10  1.949888396928E+01  1.663766078882E+00
  2.380771831859E+10  1.929490396663E+01  1.663772730919E+00
  2.390146797523E+10  1.909252716936E+01  1.663779234300E+00
  2.399513174221E+10  1.889175484384E+01  1.663785595463E+00
  2.408870985517E+10  1.869258798446E+01  1.663791820379E+00
  2.418220254867E+10  1.849502731026E+01  1.663797914338E+00
  2.427561005619E+10  1.829907325788E+01  1.663803881798E+00
  2.436893261016E+10  1.810472597148E+01  1.663809726276E+00
  2.446217044196E+10  1.791198529112E+01  1.663815450287E+00
  2.455532378191E+10  1.772085074048E+01  1.663821055340E+00
  2.464839363330E+10  1.753131994547E+01  1.663826542006E+00
  2.474138909179E+10  1.734337394845E+01  1.663831910396E+00
  2.483431285058E+10  1.715700678603E+01  1.663837159391E+00
  2.492716507527E+10  1.697221731213E+01  1.663842286995E+00
  2.501994593079E+10  1.678900403459E+01  1.663847290601E+00
  2.511265558148E+10  1.660736512195E+01  1.663852167116E+00
  2.520529419102E+10  1.642729841457E+01  1.663856913074E+00
  2.529786192246E+10  1.624880143965E+01  1.663861524757E+00
  2.539035893826E+10  1.607187142922E+01  1.663865998307E+00
  2.548278540022E+10  1.589650534010E+01  1.663870329826E+00
  2.557514222045E+10  1.572269846729E+01  1.663874515508E+00
  2.566743700330E+10  1.555043347758E+01  1.663878551982E+00
  2.575967178146E+10  1.537970355037E+01  1.663882435838E+00
  2.585184667180E+10  1.521050528058E+01  1.663886163891E+00
  2.594396179083E+10  1.504283507126E+01  1.663889733354E+00
  2.603601725468E+10  1.487668914139E+01  1.663893141906E+00
  2.612801317910E+10  1.471206352938E+01  1.663896387761E+00
  2.621994967947E+10  1.454895409192E+01  1.663899469726E+00
  2.631182687079E+10  1.438735649881E+01  1.663902387249E+00
  2.640364486769E+10  1.422726622430E+01  1.663905140454E+00
  2.649540403968E+10  1.406867809643E+01  1.663907730167E+00
  2.658711062447E+10  1.391157672994E+01  1.663910158062E+00
  2.667876731796E+10  1.375595286348E+01  1.663912426365E+00
  2.677037420151E+10  1.360180152305E+01  1.663914537873E+00
  2.686193135622E+10  1.344911747197E+01  1.663916495966E+00
  2.695343886300E+10  1.329789520183E+01  1.663918304535E+00
  2.704489680252E+10  1.314812892686E+01  1.663919967889E+00
  2.713630525525E+10  1.299981258224E+01  1.663921490648E+00
  2.722766430142E+10  1.285293982669E+01  1.663922877633E+00
  2.731897402107E+10  1.270750404944E+01  1.663924133750E+00
  2.741023449401E+10  1.256349838127E+01  1.663925263876E+00
  2.750144789674E+10  1.242091244677E+01  1.663926272785E+00
  2.759261669400E+10  1.227973532299E+01  1.663927165020E+00
  2.768374095374E+10  1.213995967796E+01  1.663927944808E+00
  2.777482074117E+10  1.200157799637E+01  1.663928616034E+00
  2.786585612135E+10  1.186458259704E+01  1.663929182215E+00
  2.795684715916E+10  1.172896565393E+01  1.663929646492E+00
  2.804779391933E+10  1.159471921572E+01  1.663930011639E+00
  2.813869646645E+10  1.146183522333E+01  1.663930280093E+00
  2.822955486493E+10  1.133030552464E+01  1.663930453994E+00
  2.832036917903E+10  1.120012188617E+01  1.663930535228E+00
  2.841113982168E+10  1.107127550873E+01  1.663930525476E+00
  2.850186819892E+10  1.094375615571E+01  1.663930426252E+00
  2.859255450271E+10  1.081755527988E+01  1.663930238935E+00
  2.868319879152E+10  1.069266445684E+01  1.663929964784E+00
  2.877380112369E+10  1.056907519220E+01  1.663929604944E+00
  2.886436155744E+10  1.044677891736E+01  1.663929160419E+00
  2.895488015084E+10  1.032576698449E+01  1.663928632042E+00
  2.904535696182E+10  1.020603066132E+01  1.663928020416E+00
  2.913579204819E+10  1.008756112641E+01  1.663927325856E+00
  2.922618546763E+10  9.970349465426E+00  1.663926548316E+00
  2.931653727526E+10  9.854386672079E+00  1.663925687324E+00
  2.940684747149E+10  9.739663713551E+00  1.663924741927E+00
  2.949711608971E+10  9.626171419108E+00  1.663923710643E+00
  2.958734318728E+10  9.513900497331E+00  1.663922591445E+00
  2.967752882145E+10  9.402841573310E+00  1.663921381775E+00
  2.976767304933E+10  9.292985196625E+00  1.663920078580E+00
  2.985777592789E+10  9.184321850950E+00  1.663918678395E+00
  2.994783751399E+10  9.076841964879E+00  1.663917177450E+00
  3.003785786435E+10  8.970535923551E+00  1.663915571818E+00
  3.012783703554E+10  8.865394080589E+00  1.663913857578E+00
  3.021777508405E+10  8.761406769878E+00  1.663912031002E+00
  3.030767125195E+10  8.658565243269E+00  1.663910088769E+00
  3.039752431356E+10  8.556861241465E+00  1.663908028154E+00
  3.048733431492E+10  8.456285037885E+00  1.663905847162E+00
  3.057710131791E+10  8.356826906751E+00  1.663903544708E+00
  3.066682538420E+10  8.258477146828E+00  1.663901120733E+00
  3.075650657537E+10  8.161226085016E+00  1.663898576274E+00
  3.084614495281E+10  8.065064078130E+00  1.663895913487E+00
  3.093574057777E+10  7.969981512981E+00  1.663893135610E+00
  3.102529351139E+10  7.875968804951E+00  1.663890246875E+00
  3.111480381461E+10  7.783016395309E+00  1.663887252360E+00
  3.120427113913E+10  7.691115165585E+00  1.663884157817E+00
  3.129369368216E+10  7.600257466720E+00  1.663880969478E+00
  3.138307128129E+10  7.510433941705E+00  1.663877693693E+00
  3.147240400421E+10  7.421635006616E+00  1.663874336703E+00
  3.156169191846E+10  7.333851084523E+00  1.663870904377E+00
  3.165093509140E+10  7.247072602296E+00  1.663867401963E+00
  3.174013359020E+10  7.161289988438E+00  1.663863833859E+00
  3.182928748191E+10  7.076493672145E+00  1.663860203435E+00
  3.191839683337E+10  6.992674083751E+00  1.663856512903E+00
  3.200746171127E+10  6.909821656631E+00  1.663852763252E+00
  3.209648192675E+10  6.827927064210E+00  1.663848954255E+00
  3.218545473347E+10  6.746983294315E+00  1.663845084634E+00
  3.227437943077E+10  6.666981408785E+00  1.663841151988E+00
  3.236325609661E+10  6.587911776083E+00  1.663837153018E+00
  3.245208480873E+10  6.509764799693E+00  1.663833083788E+00
  3.254086564468E+10  6.432530926539E+00  1.663828939970E+00
  3.262959868178E+10  6.356200655575E+00  1.663824717115E+00
  3.271828399715E+10  6.280764546187E+00  1.663820410921E+00
  3.280692166771E+10  6.206213226061E+00  1.663816017481E+00
  3.289551177015E+10  6.132537398167E+00  1.663811533505E+00
  3.298405420428E+10  6.059727991061E+00  1.663806956511E+00
  3.307254620292E+10  5.987778168280E+00  1.663802285078E+00
  3.316098686041E+10  5.916679589912E+00  1.663797518682E+00
  3.324937626601E+10  5.846423185086E+00  1.663792657742E+00
  3.333771450871E+10  5.776999974233E+00  1.663787703607E+00
  3.342600167727E+10  5.708401066727E+00  1.663782658445E+00
  3.351423786017E+10  5.640617657074E+00  1.663777525088E+00
  3.360242314563E+10  5.573641019897E+00  1.663772306829E+00
  3.369055762164E+10  5.507462504050E+00  1.663767007209E+00
  3.377864137591E+10  5.442073526267E+00  1.663761629792E+00
  3.386667420361E+10  5.377465778053E+00  1.663756177961E+00
  3.395465360215E+10  5.313632654058E+00  1.663750654855E+00
  3.404257905909E+10  5.250566094514E+00  1.663745062940E+00
  3.413045067353E+10  5.188257636405E+00  1.663739403971E+00
  3.421826854428E+10  5.126698862386E+00  1.663733678961E+00
  3.430603276981E+10  5.065881399729E+00  1.663727888171E+00
  3.439374344832E+10  5.005796920981E+00  1.663722031148E+00
  3.448140067770E+10  4.946437146286E+00  1.663716106815E+00
  3.456900455555E+10  4.887793847194E+00  1.663710113596E+00
  3.465655517915E+10  4.829858851702E+00  1.663704049584E+00
  3.474405157811E+10  4.772624744330E+00  1.663697912789E+00
  3.483149117469E+10  4.716085179401E+00  1.663691701370E+00
  3.491887395057E+10  4.660232180815E+00  1.663685413514E+00
  3.500620001637E+10  4.605057770168E+00  1.663679047758E+00
  3.509346948236E+10  4.550554056413E+00  1.663672603124E+00
  3.518068245844E+10  4.496713239035E+00  1.663666079197E+00
  3.526783905419E+10  4.443527609548E+00  1.663659476166E+00
  3.535493937879E+10  4.390989551174E+00  1.663652794816E+00
  3.544198354111E+10  4.339091536690E+00  1.663646036471E+00
  3.552897145384E+10  4.287826239315E+00  1.663639202921E+00
  3.561590073311E+10  4.237187737294E+00  1.663632296465E+00
  3.570277074074E+10  4.187169116907E+00  1.663625319454E+00
  3.578958159782E+10  4.137763083586E+00  1.663618274210E+00
  3.587633342501E+10  4.088962405501E+00  1.663611162939E+00
  3.596302634256E+10  4.040759907455E+00  1.663603987598E+00
