 1.992380764297E+03 # surface pressure
 2400 # surface pressure
# r rho (dimensional) Gamma1
  0.000000000000E+00  6.705570710683E+01  1.660037028371E+00
  1.525044946628E+08  6.705262936514E+01  1.660037322739E+00
  3.050009021654E+08  6.704339761426E+01  1.660038205754E+00
  4.574904005142E+08  6.702801506022E+01  1.660039677138E+00
  6.099676386230E+08  6.700648743076E+01  1.660041736508E+00
  7.624302066244E+08  6.697882223968E+01  1.660044383250E+00
  9.148731117919E+08  6.694502970808E+01  1.660047616675E+00
  1.067293268429E+09  6.690512177370E+01  1.660051435817E+00
  1.219686723415E+09  6.685911281908E+01  1.660055839638E+00
  1.372049607902E+09  6.680701940571E+01  1.660060826944E+00
  1.524377845221E+09  6.674886025109E+01  1.660066396281E+00
  1.676668781512E+09  6.668465570346E+01  1.660072546154E+00
  1.828917077254E+09  6.661442941206E+01  1.660079274847E+00
  1.981120148885E+09  6.653820587293E+01  1.660086580535E+00
  2.133273579597E+09  6.645601248675E+01  1.660094461150E+00
  2.285374572551E+09  6.636787794136E+01  1.660102914611E+00
  2.437417806673E+09  6.627383446709E+01  1.660111938549E+00
  2.589401309763E+09  6.617391423355E+01  1.660121530607E+00
  2.741319571480E+09  6.606815363910E+01  1.660131688065E+00
  2.893171343504E+09  6.595658818456E+01  1.660142408372E+00
  3.044949990155E+09  6.583925926613E+01  1.660153688466E+00
  3.196654256515E+09  6.571620614838E+01  1.660165525522E+00
  3.348278942056E+09  6.558747297932E+01  1.660177916285E+00
  3.499820882859E+09  6.545310416358E+01  1.660190857544E+00
  3.651277867676E+09  6.531314503300E+01  1.660204346051E+00
  3.802643195219E+09  6.516764693564E+01  1.660218378012E+00
  3.953916440231E+09  6.501665700738E+01  1.660232950083E+00
  4.105091722499E+09  6.486022932403E+01  1.660248058325E+00
  4.256166102551E+09  6.469841679053E+01  1.660263698979E+00
  4.407138028746E+09  6.453127238027E+01  1.660279868302E+00
  4.558000153251E+09  6.435885716384E+01  1.660296561770E+00
  4.708751847091E+09  6.418122625052E+01  1.660313775496E+00
  4.859389135680E+09  6.399843991776E+01  1.660331505196E+00
  5.009906692721E+09  6.381056169660E+01  1.660349746360E+00
  5.160304513161E+09  6.361764997191E+01  1.660368494968E+00
  5.310574832226E+09  6.341977448675E+01  1.660387745851E+00
  5.460714186384E+09  6.321700104494E+01  1.660407494246E+00
  5.610721604831E+09  6.300939319636E+01  1.660427735752E+00
  5.760587525433E+09  6.279702769457E+01  1.660448464825E+00
  5.910310304408E+09  6.257997175885E+01  1.660469676841E+00
  6.059888079197E+09  6.235829399261E+01  1.660491366914E+00
  6.209313313780E+09  6.213207266894E+01  1.660513529175E+00
  6.358585786212E+09  6.190137617847E+01  1.660536158965E+00
  6.507702204545E+09  6.166627833003E+01  1.660559251381E+00
  6.656655820955E+09  6.142685957311E+01  1.660582800572E+00
  6.805446986133E+09  6.118319031343E+01  1.660606800263E+00
  6.954073080557E+09  6.093534691500E+01  1.660631241269E+00
  7.102531254967E+09  6.068340728943E+01  1.660656112150E+00
  7.250821986562E+09  6.042744429995E+01  1.660681401511E+00
  7.398940025158E+09  6.016754084594E+01  1.660707098764E+00
  7.546882487659E+09  5.990377594376E+01  1.660733196888E+00
  7.694649364511E+09  5.963622362753E+01  1.660759692032E+00
  7.842231537042E+09  5.936497507113E+01  1.660786579275E+00
  7.989626383588E+09  5.909011070412E+01  1.660813853354E+00
  8.136833000161E+09  5.881170835848E+01  1.660841507376E+00
  8.283841992630E+09  5.852986250225E+01  1.660869532177E+00
  8.430652397559E+09  5.824465204784E+01  1.660897921236E+00
  8.577262600510E+09  5.795615725950E+01  1.660926669495E+00
  8.723666546587E+09  5.766446754264E+01  1.660955771383E+00
  8.869864682160E+09  5.736965981259E+01  1.660985221311E+00
  9.015853247905E+09  5.707181956926E+01  1.661015011180E+00
  9.161627812022E+09  5.677103393519E+01  1.661045132523E+00
  9.307188888376E+09  5.646737997653E+01  1.661075579639E+00
  9.452529677380E+09  5.616095030927E+01  1.661106347588E+00
  9.597648272185E+09  5.585182785144E+01  1.661137433276E+00
  9.742543323211E+09  5.554009442832E+01  1.661168832568E+00
  9.887207760217E+09  5.522584396952E+01  1.661200538296E+00
  1.003164195761E+10  5.490915380487E+01  1.661232544248E+00
  1.017584189712E+10  5.459011037640E+01  1.661264843857E+00
  1.031980525553E+10  5.426879645559E+01  1.661297431390E+00
  1.046353121235E+10  5.394529160772E+01  1.661330300863E+00
  1.060701396645E+10  5.361968652807E+01  1.661363444451E+00
  1.075025381604E+10  5.329205760201E+01  1.661396856340E+00
  1.089324622255E+10  5.296249163574E+01  1.661430530951E+00
  1.103599034138E+10  5.263106681742E+01  1.661464463496E+00
  1.117848166392E+10  5.229786988101E+01  1.661498646600E+00
  1.132071634192E+10  5.196298575396E+01  1.661533072666E+00
  1.146269190102E+10  5.162649530921E+01  1.661567736919E+00
  1.160440402355E+10  5.128848326378E+01  1.661602635504E+00
  1.174585121319E+10  5.094902774595E+01  1.661637761986E+00
  1.188703056226E+10  5.060820995667E+01  1.661673107638E+00
  1.202793930182E+10  5.026610944691E+01  1.661708669630E+00
  1.216857502473E+10  4.992280437372E+01  1.661744445570E+00
  1.230893784938E+10  4.957836860833E+01  1.661780410915E+00
  1.244902812019E+10  4.923287637708E+01  1.661816521708E+00
  1.258884511686E+10  4.888640090981E+01  1.661852759203E+00
  1.272838483775E+10  4.853902046300E+01  1.661889130260E+00
  1.286764074487E+10  4.819082055431E+01  1.661925624271E+00
  1.300660883884E+10  4.784187906542E+01  1.661962240085E+00
  1.314528731958E+10  4.749226801289E+01  1.661998972916E+00
  1.328331056016E+10  4.714262923387E+01  1.662035598569E+00
  1.341945850310E+10  4.679497941543E+01  1.662071380061E+00
  1.355375521944E+10  4.644936331315E+01  1.662106291935E+00
  1.368632867443E+10  4.610564811241E+01  1.662140405971E+00
  1.381729964710E+10  4.576370482986E+01  1.662173759267E+00
  1.394676105934E+10  4.542346314598E+01  1.662206380733E+00
  1.407481429552E+10  4.508481703983E+01  1.662238319767E+00
  1.420154743479E+10  4.474768357568E+01  1.662269621195E+00
  1.432701147072E+10  4.441206917357E+01  1.662300306936E+00
  1.445131534076E+10  4.407781673089E+01  1.662330405421E+00
  1.457450356891E+10  4.374493340404E+01  1.662359932731E+00
  1.469661283131E+10  4.341344109104E+01  1.662388910803E+00
  1.481773833932E+10  4.308319557489E+01  1.662417379194E+00
  1.493792003471E+10  4.275419558660E+01  1.662445361682E+00
  1.505717964220E+10  4.242648403424E+01  1.662472871608E+00
  1.517556135809E+10  4.210003658451E+01  1.662499921839E+00
  1.529313649949E+10  4.177474790550E+01  1.662526529051E+00
  1.540992332113E+10  4.145065379425E+01  1.662552699440E+00
  1.552593747013E+10  4.112779325839E+01  1.662578442703E+00
  1.564120569035E+10  4.080617075713E+01  1.662603774944E+00
  1.575578985763E+10  4.048568896663E+01  1.662628721733E+00
  1.586970717849E+10  4.016637208619E+01  1.662653297840E+00
  1.598296916172E+10  3.984825797313E+01  1.662677513574E+00
  1.609558698883E+10  3.953138330649E+01  1.662701374730E+00
  1.620759366953E+10  3.921572114251E+01  1.662724887359E+00
  1.631903576765E+10  3.890120385491E+01  1.662748057076E+00
  1.642992230676E+10  3.858786745552E+01  1.662770880255E+00
  1.654026151363E+10  3.827574827985E+01  1.662793353657E+00
  1.665006141397E+10  3.796488130496E+01  1.662815475901E+00
  1.675933824473E+10  3.765527633506E+01  1.662837249777E+00
  1.686813934123E+10  3.734685310528E+01  1.662858686598E+00
  1.697647604184E+10  3.703963155019E+01  1.662879792299E+00
  1.708435424280E+10  3.673364544707E+01  1.662900572863E+00
  1.719177971666E+10  3.642892740375E+01  1.662921034574E+00
  1.729875811583E+10  3.612550889093E+01  1.662941183395E+00
  1.740530647147E+10  3.582338767725E+01  1.662961026795E+00
  1.751146380836E+10  3.552249785872E+01  1.662980575586E+00
  1.761723662622E+10  3.522286452318E+01  1.662999834088E+00
  1.772262907339E+10  3.492451818278E+01  1.663018806269E+00
  1.782764522416E+10  3.462748834691E+01  1.663037496566E+00
  1.793228908060E+10  3.433180355431E+01  1.663055910175E+00
  1.803656622623E+10  3.403748674933E+01  1.663074053445E+00
  1.814051099519E+10  3.374447881888E+01  1.663091938412E+00
  1.824413797334E+10  3.345277564984E+01  1.663109574038E+00
  1.834745005775E+10  3.316240519269E+01  1.663126967335E+00
  1.845045010170E+10  3.287339458660E+01  1.663144124927E+00
  1.855314091567E+10  3.258577015740E+01  1.663161052596E+00
  1.865552526817E+10  3.229955740582E+01  1.663177754916E+00
  1.875760796451E+10  3.201477519824E+01  1.663194235358E+00
  1.885942077919E+10  3.173136648867E+01  1.663210500158E+00
  1.896097521201E+10  3.144933024701E+01  1.663226550744E+00
  1.906227322022E+10  3.116869114582E+01  1.663242385775E+00
  1.916331673648E+10  3.088947297232E+01  1.663258002982E+00
  1.926410766929E+10  3.061169863042E+01  1.663273399505E+00
  1.936464790342E+10  3.033539015398E+01  1.663288572226E+00
  1.946493930031E+10  3.006056872964E+01  1.663303518070E+00
  1.956499689631E+10  2.978721872700E+01  1.663318236167E+00
  1.966484500233E+10  2.951529891318E+01  1.663332727325E+00
  1.976448532464E+10  2.924482933094E+01  1.663346989496E+00
  1.986391915507E+10  2.897583040946E+01  1.663361021142E+00
  1.996314777211E+10  2.870832188085E+01  1.663374821302E+00
  2.006217244110E+10  2.844232278249E+01  1.663388389572E+00
  2.016099441444E+10  2.817785144682E+01  1.663401726100E+00
  2.025961493177E+10  2.791492547948E+01  1.663414831591E+00
  2.035804826414E+10  2.765352715707E+01  1.663427709044E+00
  2.045631410628E+10  2.739362417415E+01  1.663440362704E+00
  2.055441345458E+10  2.713523333509E+01  1.663452795058E+00
  2.065234715246E+10  2.687837096548E+01  1.663465009409E+00
  2.075011603625E+10  2.662305248658E+01  1.663477009960E+00
  2.084772093527E+10  2.636929238691E+01  1.663488801846E+00
  2.094516267190E+10  2.611710420628E+01  1.663500391114E+00
  2.104244206166E+10  2.586650053411E+01  1.663511784633E+00
  2.113956279426E+10  2.561748565388E+01  1.663522990263E+00
  2.123654187646E+10  2.537002916825E+01  1.663534017779E+00
  2.133338246492E+10  2.512413569275E+01  1.663544875455E+00
  2.143008515128E+10  2.487981561115E+01  1.663555571078E+00
  2.152665052300E+10  2.463707855072E+01  1.663566111893E+00
  2.162307916337E+10  2.439593344261E+01  1.663576504251E+00
  2.171937165155E+10  2.415638858244E+01  1.663586753289E+00
  2.181552856266E+10  2.391845168773E+01  1.663596862673E+00
  2.191155046773E+10  2.368212994942E+01  1.663606834415E+00
  2.200744180363E+10  2.344742062983E+01  1.663616669190E+00
  2.210321340256E+10  2.321430522107E+01  1.663626366585E+00
  2.219886627064E+10  2.298278906493E+01  1.663635923569E+00
  2.229440084836E+10  2.275287847730E+01  1.663645335693E+00
  2.238981757349E+10  2.252457937411E+01  1.663654597447E+00
  2.248511688112E+10  2.229789727252E+01  1.663663702634E+00
  2.258029920365E+10  2.207283728812E+01  1.663672644771E+00
  2.267536497084E+10  2.184940412996E+01  1.663681417508E+00
  2.277031460984E+10  2.162760209576E+01  1.663690015026E+00
  2.286515071771E+10  2.140743004075E+01  1.663698432584E+00
  2.295988356568E+10  2.118886887659E+01  1.663706667269E+00
  2.305451470036E+10  2.097191961299E+01  1.663714716759E+00
  2.314904444866E+10  2.075658569316E+01  1.663722580152E+00
  2.324347313577E+10  2.054287016959E+01  1.663730258113E+00
  2.333780108513E+10  2.033077571975E+01  1.663737752822E+00
  2.343202861844E+10  2.012030466417E+01  1.663745067846E+00
  2.352615605573E+10  1.991145898558E+01  1.663752207934E+00
  2.362018371531E+10  1.970424034789E+01  1.663759178771E+00
  2.371411197876E+10  1.949864997168E+01  1.663765986694E+00
  2.380794869705E+10  1.929467261028E+01  1.663772638908E+00
  2.390169928693E+10  1.909229842879E+01  1.663779142460E+00
  2.399536398513E+10  1.889152869375E+01  1.663785503789E+00
  2.408894302728E+10  1.869236439967E+01  1.663791728867E+00
  2.418243664796E+10  1.849480626571E+01  1.663797822985E+00
  2.427584508067E+10  1.829885472857E+01  1.663803790604E+00
  2.436916855784E+10  1.810450993253E+01  1.663809635240E+00
  2.446240731085E+10  1.791177171765E+01  1.663815359411E+00
  2.455556157004E+10  1.772063960770E+01  1.663820964624E+00
  2.464863233394E+10  1.753111123829E+01  1.663826451451E+00
  2.474162869405E+10  1.734316766043E+01  1.663831820004E+00
  2.483455335203E+10  1.715680289351E+01  1.663837069162E+00
  2.492740647350E+10  1.697201579147E+01  1.663842196930E+00
  2.502018822341E+10  1.678880486215E+01  1.663847200701E+00
  2.511289876609E+10  1.660716827412E+01  1.663852077379E+00
  2.520553826524E+10  1.642710386775E+01  1.663856823499E+00
  2.529810688391E+10  1.624860917029E+01  1.663861435343E+00
  2.539060478458E+10  1.607168141381E+01  1.663865909051E+00
  2.548303212905E+10  1.589631755520E+01  1.663870240723E+00
  2.557538982531E+10  1.572251289731E+01  1.663874426555E+00
  2.566768547504E+10  1.555025011209E+01  1.663878463174E+00
  2.575992111749E+10  1.537952236668E+01  1.663882347169E+00
  2.585209686956E+10  1.521032625610E+01  1.663886075356E+00
  2.594421284776E+10  1.504265818345E+01  1.663889644947E+00
  2.603626916822E+10  1.487651436784E+01  1.663893053621E+00
  2.612826594671E+10  1.471189084777E+01  1.663896299594E+00
  2.622020329860E+10  1.454878348005E+01  1.663899381672E+00
  2.631208133892E+10  1.438718793464E+01  1.663902299302E+00
  2.640390018230E+10  1.422709968592E+01  1.663905052610E+00
  2.649566019606E+10  1.406851356593E+01  1.663907642423E+00
  2.658736761305E+10  1.391141419798E+01  1.663910070415E+00
  2.667902513626E+10  1.375579230875E+01  1.663912338813E+00
  2.677063284704E+10  1.360164292444E+01  1.663914450413E+00
  2.686219082652E+10  1.344896080857E+01  1.663916408596E+00
  2.695369915559E+10  1.329774045297E+01  1.663918217254E+00
  2.704515791495E+10  1.314797607207E+01  1.663919880695E+00
  2.713656718506E+10  1.299966160127E+01  1.663921403541E+00
  2.722792704618E+10  1.285279069951E+01  1.663922790610E+00
  2.731923757833E+10  1.270735675622E+01  1.663924046809E+00
  2.741049886134E+10  1.256335290238E+01  1.663925177016E+00
  2.750171306731E+10  1.242076876970E+01  1.663926186001E+00
  2.759288266507E+10  1.227959342896E+01  1.663927078310E+00
  2.768400772276E+10  1.213981954810E+01  1.663927858167E+00
  2.777508830558E+10  1.200143961195E+01  1.663928529458E+00
  2.786612447859E+10  1.186444593946E+01  1.663929095698E+00
  2.795711630670E+10  1.172883070472E+01  1.663929560028E+00
  2.804806385464E+10  1.159458595655E+01  1.663929925223E+00
  2.813896718699E+10  1.146170363598E+01  1.663930193719E+00
  2.822982636818E+10  1.133017559103E+01  1.663930367655E+00
  2.832064146247E+10  1.119999358835E+01  1.663930448919E+00
  2.841141288174E+10  1.107114883044E+01  1.663930439192E+00
  2.850214203250E+10  1.094363108013E+01  1.663930339989E+00
  2.859282910742E+10  1.081743178938E+01  1.663930152689E+00
  2.868347416497E+10  1.069254253397E+01  1.663929878553E+00
  2.877407726351E+10  1.056895481970E+01  1.663929518727E+00
  2.886463846125E+10  1.044666007814E+01  1.663929074216E+00
  2.895515781627E+10  1.032564966164E+01  1.663928545853E+00
  2.904563538651E+10  1.020591483814E+01  1.663927934244E+00
  2.913607122979E+10  1.008744678637E+01  1.663927239702E+00
  2.922646540378E+10  9.970236592176E+00  1.663926462184E+00
  2.931681796363E+10  9.854275249406E+00  1.663925601217E+00
  2.940712890976E+10  9.739553725418E+00  1.663924655847E+00
  2.949739827545E+10  9.626062849725E+00  1.663923624594E+00
  2.958762611809E+10  9.513793331030E+00  1.663922505429E+00
  2.967781249492E+10  9.402735794534E+00  1.663921295794E+00
  2.976795746306E+10  9.292880789920E+00  1.663919992634E+00
  2.985806107950E+10  9.184218800950E+00  1.663918592483E+00
  2.994812340108E+10  9.076740256306E+00  1.663917091571E+00
  3.003814448455E+10  8.970435541210E+00  1.663915485970E+00
  3.012812438648E+10  8.865295009370E+00  1.663913771756E+00
  3.021806316335E+10  8.761308994759E+00  1.663911945202E+00
  3.030796005897E+10  8.658468747371E+00  1.663910002986E+00
  3.039781384611E+10  8.556766009759E+00  1.663907942381E+00
  3.048762457061E+10  8.456191055735E+00  1.663905761393E+00
  3.057739229432E+10  8.356734159649E+00  1.663903458937E+00
  3.066711707894E+10  8.258385620403E+00  1.663901034953E+00
  3.075679898605E+10  8.161135765046E+00  1.663898490481E+00
  3.084643807704E+10  8.064974950548E+00  1.663895827675E+00
  3.093603441318E+10  7.969893563881E+00  1.663893049776E+00
  3.102558805561E+10  7.875882020585E+00  1.663890161014E+00
  3.111509906527E+10  7.782930762093E+00  1.663887166470E+00
  3.120456709518E+10  7.691030668737E+00  1.663884071896E+00
  3.129399034230E+10  7.600174091892E+00  1.663880883525E+00
  3.138336864324E+10  7.510351675690E+00  1.663877607706E+00
  3.147270206569E+10  7.421553836340E+00  1.663874250682E+00
  3.156199067721E+10  7.333770997034E+00  1.663870818323E+00
  3.165123454515E+10  7.246993584753E+00  1.663867315875E+00
  3.174043373671E+10  7.161212028106E+00  1.663863747736E+00
  3.182958831892E+10  7.076416756388E+00  1.663860117277E+00
  3.191869835864E+10  6.992598200025E+00  1.663856426709E+00
  3.200776392257E+10  6.909746792488E+00  1.663852677021E+00
  3.209678482309E+10  6.827853206155E+00  1.663848867986E+00
  3.218575831474E+10  6.746910428165E+00  1.663844998325E+00
  3.227468369464E+10  6.666909522490E+00  1.663841065636E+00
  3.236356104078E+10  6.587840857708E+00  1.663837066622E+00
  3.245239043089E+10  6.509694837425E+00  1.663832997346E+00
  3.254117194253E+10  6.432461908699E+00  1.663828853481E+00
  3.262990565303E+10  6.356132570618E+00  1.663824630579E+00
  3.271859163952E+10  6.280697382711E+00  1.663820324336E+00
  3.280722997891E+10  6.206146972805E+00  1.663815930848E+00
  3.289582074792E+10  6.132472044011E+00  1.663811446825E+00
  3.298436384740E+10  6.059663524159E+00  1.663806869784E+00
  3.307285651168E+10  5.987714575677E+00  1.663802198306E+00
  3.316129783267E+10  5.916616860790E+00  1.663797431869E+00
  3.324968789961E+10  5.846361308735E+00  1.663792570888E+00
  3.333802680153E+10  5.776938940037E+00  1.663787616714E+00
  3.342631462716E+10  5.708340864150E+00  1.663782571517E+00
  3.351455146500E+10  5.640558275653E+00  1.663777438124E+00
  3.360273740329E+10  5.573582449225E+00  1.663772219831E+00
  3.369087253001E+10  5.507404733778E+00  1.663766920176E+00
  3.377895693289E+10  5.442016546099E+00  1.663761542723E+00
  3.386699040833E+10  5.377409576850E+00  1.663756090854E+00
  3.395497045417E+10  5.313577220413E+00  1.663750567708E+00
  3.404289655620E+10  5.250511418420E+00  1.663744975748E+00
  3.413076881351E+10  5.188203707937E+00  1.663739316730E+00
  3.421858732490E+10  5.126645671710E+00  1.663733591666E+00
  3.430635218887E+10  5.065828937122E+00  1.663727800818E+00
  3.439406350362E+10  5.005745176842E+00  1.663721943732E+00
  3.448172136705E+10  4.946386111146E+00  1.663716019330E+00
  3.456932587676E+10  4.887743511729E+00  1.663710026040E+00
  3.465687713005E+10  4.829809206734E+00  1.663703961952E+00
  3.474437415903E+10  4.772575779195E+00  1.663697825079E+00
  3.483181438446E+10  4.716036884572E+00  1.663691613579E+00
  3.491919778717E+10  4.660184547471E+00  1.663685325640E+00
  3.500652447778E+10  4.605010789623E+00  1.663678959802E+00
  3.509379456659E+10  4.550507720105E+00  1.663672515086E+00
  3.518100816349E+10  4.496667538512E+00  1.663665991077E+00
  3.526816537807E+10  4.443482536458E+00  1.663659387965E+00
  3.535526631953E+10  4.390945097250E+00  1.663652706534E+00
  3.544231109672E+10  4.339047693743E+00  1.663645948109E+00
  3.552929962334E+10  4.287782998652E+00  1.663639114479E+00
  3.561622951647E+10  4.237145089732E+00  1.663632207943E+00
  3.570310013602E+10  4.187127054478E+00  1.663625230852E+00
  3.578991160305E+10  4.137721598395E+00  1.663618185526E+00
  3.587666403825E+10  4.088921489742E+00  1.663611074171E+00
  3.596335756188E+10  4.040719553409E+00  1.663603898747E+00
