 0e0 # 1.085854e-08          # dimensionless surface pressure
      1001             # radial resolution
# r  rho
0.000000000000000e+00  7.631985685617184e+01
6.959900000002480e+07  7.631804175711387e+01
1.391980000000496e+08  7.631259675731229e+01
2.087970000000745e+08  7.630352285678252e+01
2.783960000000992e+08  7.629082169381641e+01
3.479950000001240e+08  7.627449556263883e+01
4.175940000001488e+08  7.625454741203819e+01
4.871930000001736e+08  7.623098084403946e+01
5.567920000001984e+08  7.620380011250670e+01
6.263910000002232e+08  7.617301012155075e+01
6.959900000002480e+08  7.613861642371366e+01
7.655890000002729e+08  7.610062521792099e+01
8.351880000002977e+08  7.605904334720069e+01
9.047870000003223e+08  7.601387829616827e+01
9.743860000003471e+08  7.596513818827961e+01
1.043985000000372e+09  7.591283178285242e+01
1.113584000000397e+09  7.585696847185818e+01
1.183183000000422e+09  7.579755827648674e+01
1.252782000000446e+09  7.573461184348497e+01
1.322381000000471e+09  7.566814044127241e+01
1.391980000000496e+09  7.559815595583550e+01
1.461579000000521e+09  7.552467088640358e+01
1.531178000000546e+09  7.544769834090869e+01
1.600777000000571e+09  7.536725203123223e+01
1.670376000000596e+09  7.528334626824122e+01
1.739975000000621e+09  7.519599595661711e+01
1.809574000000646e+09  7.510521658948043e+01
1.879173000000670e+09  7.501102424281399e+01
1.948772000000696e+09  7.491343556968862e+01
2.018371000000721e+09  7.481246779429442e+01
2.087970000000745e+09  7.470813870578112e+01
2.157569000000770e+09  7.460046665191128e+01
2.227168000000795e+09  7.448947053253006e+01
2.296767000000820e+09  7.437516979285530e+01
2.366366000000845e+09  7.425758441659192e+01
2.435965000000870e+09  7.413673491887470e+01
2.505564000000895e+09  7.401264233904323e+01
2.575163000000919e+09  7.388532823325380e+01
2.644762000000945e+09  7.375481466693185e+01
2.714361000000969e+09  7.362112420706974e+01
2.783960000000994e+09  7.348427991437410e+01
2.853559000001019e+09  7.334430533526726e+01
2.923158000001044e+09  7.320122449374725e+01
2.992757000001069e+09  7.305506188311112e+01
3.062356000001094e+09  7.290584245754599e+01
3.131955000001119e+09  7.275359162359290e+01
3.201554000001144e+09  7.259833523148775e+01
3.271153000001169e+09  7.244009956638467e+01
3.340752000001194e+09  7.227891133946610e+01
3.410351000001219e+09  7.211479767894507e+01
3.479950000001243e+09  7.194778612096395e+01
3.549549000001268e+09  7.177790460039532e+01
3.619148000001293e+09  7.160518144154919e+01
3.688747000001319e+09  7.142964534879223e+01
3.758346000001343e+09  7.125132539708355e+01
3.827945000001368e+09  7.107025102243240e+01
3.897544000001393e+09  7.088645201228236e+01
3.967143000001418e+09  7.069995849582780e+01
4.036742000001443e+09  7.051080093426687e+01
4.106341000001468e+09  7.031901011099657e+01
4.175940000001493e+09  7.012461712175471e+01
4.245539000001518e+09  6.992765336471399e+01
4.315138000001542e+09  6.972815053053291e+01
4.384737000001568e+09  6.952614059236890e+01
4.454336000001593e+09  6.932165579585832e+01
4.523935000001617e+09  6.911472864906844e+01
4.593534000001642e+09  6.890539191242635e+01
4.663133000001667e+09  6.869367858862974e+01
4.732732000001693e+09  6.847962191254409e+01
4.802331000001717e+09  6.826325534109172e+01
4.871930000001742e+09  6.804461254313702e+01
4.941529000001767e+09  6.782372738937256e+01
5.011128000001792e+09  6.760063394221125e+01
5.080727000001817e+09  6.737536644568878e+01
5.150326000001841e+09  6.714795931538114e+01
5.219925000001866e+09  6.691844712834178e+01
5.289524000001891e+09  6.668686461306274e+01
5.359123000001916e+09  6.645324663946448e+01
5.428722000001941e+09  6.621762820891861e+01
5.498321000001966e+09  6.598004444430764e+01
5.567920000001990e+09  6.574053058012647e+01
5.637519000002016e+09  6.549912195262941e+01
5.707118000002040e+09  6.525585399002695e+01
5.776717000002066e+09  6.501076220273639e+01
5.846316000002090e+09  6.476388217369002e+01
5.915915000002115e+09  6.451524954870528e+01
5.985514000002140e+09  6.426490002691999e+01
6.055113000002165e+09  6.401286935129690e+01
6.124712000002191e+09  6.375919329920103e+01
6.194311000002215e+09  6.350390767305323e+01
6.263910000002239e+09  6.324704829106373e+01
6.333509000002265e+09  6.298865097804863e+01
6.403108000002290e+09  6.272875155633299e+01
6.472707000002316e+09  6.246738583674370e+01
6.542306000002339e+09  6.220458960969484e+01
6.611905000002364e+09  6.194039863636915e+01
6.681504000002390e+09  6.167484863999798e+01
6.751103000002415e+09  6.140797529724294e+01
6.820702000002440e+09  6.113981422968179e+01
6.890301000002464e+09  6.087040099540133e+01
6.959900000002489e+09  6.059977108069973e+01
7.029499000002515e+09  6.032795989190078e+01
7.099098000002539e+09  6.005500274728252e+01
7.168697000002564e+09  5.978093486912233e+01
7.238296000002589e+09  5.950579137586092e+01
7.307895000002613e+09  5.922960727438689e+01
7.377494000002639e+09  5.895241745244426e+01
7.447093000002664e+09  5.867425667116450e+01
7.516692000002689e+09  5.839515955772509e+01
7.586291000002713e+09  5.811516059813609e+01
7.655890000002738e+09  5.783429413015647e+01
7.725489000002764e+09  5.755259433634159e+01
7.795088000002789e+09  5.727009523722329e+01
7.864687000002813e+09  5.698683068462380e+01
7.934286000002838e+09  5.670283435510483e+01
8.003885000002863e+09  5.641813974355272e+01
8.073484000002889e+09  5.613278015690102e+01
8.143083000002913e+09  5.584678870799103e+01
8.212682000002937e+09  5.556019830957143e+01
8.282281000002963e+09  5.527304166843765e+01
8.351880000002988e+09  5.498535127971165e+01
8.421479000003013e+09  5.469715942126265e+01
8.491078000003037e+09  5.440849814826932e+01
8.560677000003062e+09  5.411939928792393e+01
8.630276000003088e+09  5.382989443427846e+01
8.699875000003113e+09  5.354001494323339e+01
8.769474000003138e+09  5.324979192766891e+01
8.839073000003162e+09  5.295925625271869e+01
8.908672000003187e+09  5.266843853118648e+01
8.978271000003212e+09  5.237736911910506e+01
9.047870000003239e+09  5.208607811143761e+01
9.117469000003262e+09  5.179459533792124e+01
9.187068000003286e+09  5.150295035905236e+01
9.256667000003311e+09  5.121117246221335e+01
9.326266000003336e+09  5.091929065794039e+01
9.395865000003363e+09  5.062733367633160e+01
9.465464000003387e+09  5.033532996359512e+01
9.535063000003412e+09  5.004330767873638e+01
9.604662000003435e+09  4.975129469038377e+01
9.674261000003460e+09  4.945931857375216e+01
9.743860000003487e+09  4.916740660774315e+01
9.813459000003511e+09  4.887558577218132e+01
9.883058000003536e+09  4.858388274518551e+01
9.952657000003561e+09  4.829232390067398e+01
1.002225600000359e+10  4.800093530600259e+01
1.009185500000361e+10  4.770974271973465e+01
1.016145400000364e+10  4.741877158954151e+01
1.023105300000366e+10  4.712804705023245e+01
1.030065200000368e+10  4.683759392191274e+01
1.037025100000371e+10  4.654743670826849e+01
1.043985000000373e+10  4.625759959497706e+01
1.050944900000375e+10  4.596810644824132e+01
1.057904800000378e+10  4.567898081344680e+01
1.064864700000380e+10  4.539024591393978e+01
1.071824600000382e+10  4.510192464992520e+01
1.078784500000385e+10  4.481403959748246e+01
1.085744400000387e+10  4.452661300769802e+01
1.092704300000390e+10  4.423966680591265e+01
1.099664200000392e+10  4.395322259108205e+01
1.106624100000394e+10  4.366730163524914e+01
1.113584000000397e+10  4.338192488312615e+01
1.120543900000399e+10  4.309711295178499e+01
1.127503800000402e+10  4.281288613045405e+01
1.134463700000404e+10  4.252926438041961e+01
1.141423600000406e+10  4.224626733503037e+01
1.148383500000409e+10  4.196391429980276e+01
1.155343400000411e+10  4.168222425262587e+01
1.162303300000414e+10  4.140121584406368e+01
1.169263200000416e+10  4.112090739775283e+01
1.176223100000418e+10  4.084131691089439e+01
1.183183000000421e+10  4.056246205483718e+01
1.190142900000423e+10  4.028436017575139e+01
1.197102800000425e+10  4.000702829539021e+01
1.204062700000428e+10  3.973048311193755e+01
1.211022600000430e+10  3.945474100094036e+01
1.217982500000432e+10  3.917981801632307e+01
1.224942400000435e+10  3.890572989148285e+01
1.231902300000437e+10  3.863249204046316e+01
1.238862200000440e+10  3.836011955920431e+01
1.245822100000442e+10  3.808862722686850e+01
1.252782000000444e+10  3.781802950723800e+01
1.259741900000447e+10  3.754834055018419e+01
1.266701800000449e+10  3.727957419320573e+01
1.273661700000452e+10  3.701174396303383e+01
1.280621600000454e+10  3.674486307730287e+01
1.287581500000456e+10  3.647894444628458e+01
1.294541400000459e+10  3.621400067468350e+01
1.301501300000461e+10  3.595004406349235e+01
1.308461200000464e+10  3.568708661190514e+01
1.315421100000466e+10  3.542514001928628e+01
1.322381000000468e+10  3.516421568719390e+01
1.329340900000471e+10  3.490432472145540e+01
1.336300800000473e+10  3.464547793429372e+01
1.343260700000476e+10  3.438768584650214e+01
1.350220600000478e+10  3.413095868966634e+01
1.357180500000480e+10  3.387530640843136e+01
1.364140400000482e+10  3.362073866281229e+01
1.371100300000485e+10  3.336726483054656e+01
1.378060200000487e+10  3.311489400948636e+01
1.385020100000490e+10  3.286363502002940e+01
1.391980000000492e+10  3.261349640758625e+01
1.398939900000494e+10  3.236448644508282e+01
1.405899800000497e+10  3.211661313549626e+01
1.412859700000499e+10  3.186988421442243e+01
1.419819600000502e+10  3.162430715267389e+01
1.426779500000504e+10  3.137988915890619e+01
1.433739400000506e+10  3.113663718227143e+01
1.440699300000509e+10  3.089455791509728e+01
1.447659200000511e+10  3.065365779559012e+01
1.454619100000514e+10  3.041394301056059e+01
1.461579000000516e+10  3.017541949817036e+01
1.468538900000518e+10  2.993809295069856e+01
1.475498800000521e+10  2.970196881732633e+01
1.482458700000523e+10  2.946705230693842e+01
1.489418600000526e+10  2.923334839094003e+01
1.496378500000528e+10  2.900086180608811e+01
1.503338400000530e+10  2.876959705733514e+01
1.510298300000533e+10  2.853955842068475e+01
1.517258200000535e+10  2.831074994605742e+01
1.524218100000537e+10  2.808317546016526e+01
1.531178000000540e+10  2.785683856939460e+01
1.538137900000542e+10  2.763174266269515e+01
1.545097800000544e+10  2.740789091447467e+01
1.552057700000547e+10  2.718528628749781e+01
1.559017600000549e+10  2.696393153578815e+01
1.565977500000552e+10  2.674382920753247e+01
1.572937400000554e+10  2.652498164798574e+01
1.579897300000556e+10  2.630739100237627e+01
1.586857200000559e+10  2.609105921880971e+01
1.593817100000561e+10  2.587598805117091e+01
1.600777000000563e+10  2.566217906202293e+01
1.607736900000566e+10  2.544963362550178e+01
1.614696800000568e+10  2.523835293020648e+01
1.621656700000571e+10  2.502833798208314e+01
1.628616600000573e+10  2.481958960730242e+01
1.635576500000575e+10  2.461210845512936e+01
1.642536400000578e+10  2.440589500078491e+01
1.649496300000580e+10  2.420094954829819e+01
1.656456200000583e+10  2.399727223334878e+01
1.663416100000585e+10  2.379486302609835e+01
1.670376000000587e+10  2.359372173401069e+01
1.677335900000590e+10  2.339384800465965e+01
1.684295800000592e+10  2.319524132852416e+01
1.691255700000594e+10  2.299790104176968e+01
1.698215600000597e+10  2.280182632901547e+01
1.705175500000599e+10  2.260701622608703e+01
1.712135400000602e+10  2.241346962275310e+01
1.719095300000604e+10  2.222118526544661e+01
1.726055200000607e+10  2.203016175996917e+01
1.733015100000609e+10  2.184039757417827e+01
1.739975000000611e+10  2.165189104065695e+01
1.746934900000613e+10  2.146464035936531e+01
1.753894800000616e+10  2.127864360027338e+01
1.760854700000618e+10  2.109389870597488e+01
1.767814600000621e+10  2.091040349428150e+01
1.774774500000623e+10  2.072815566079720e+01
1.781734400000625e+10  2.054715278147215e+01
1.788694300000628e+10  2.036739231513593e+01
1.795654200000630e+10  2.018887160600961e+01
1.802614100000633e+10  2.001158788619642e+01
1.809574000000635e+10  1.983553827815055e+01
1.816533900000637e+10  1.966071979712388e+01
1.823493800000639e+10  1.948712935359029e+01
1.830453700000642e+10  1.931476375564735e+01
1.837413600000645e+10  1.914361971139488e+01
1.844373500000647e+10  1.897369383129053e+01
1.851333400000649e+10  1.880498263048174e+01
1.858293300000652e+10  1.863748253111413e+01
1.865253200000654e+10  1.847118986461603e+01
1.872213100000656e+10  1.830610087395891e+01
1.879173000000659e+10  1.814221171589363e+01
1.886132900000661e+10  1.797951846316231e+01
1.893092800000663e+10  1.781801710668564e+01
1.900052700000666e+10  1.765770355772552e+01
1.907012600000668e+10  1.749857365002296e+01
1.913972500000671e+10  1.734062314191106e+01
1.920932400000673e+10  1.718384771840301e+01
1.927892300000676e+10  1.702824299325501e+01
1.934852200000678e+10  1.687380451100410e+01
1.941812100000680e+10  1.672052774898072e+01
1.948772000000682e+10  1.656840811929612e+01
1.955731900000685e+10  1.641744097080440e+01
1.962691800000687e+10  1.626762159103932e+01
1.969651700000689e+10  1.611894520812573e+01
1.976611600000692e+10  1.597140699266574e+01
1.983571500000695e+10  1.582500205959954e+01
1.990531400000697e+10  1.567972547004091e+01
1.997491300000699e+10  1.553557223308747e+01
2.004451200000702e+10  1.539253730760567e+01
2.011411100000704e+10  1.525061560399062e+01
2.018371000000707e+10  1.510980198590072e+01
2.025330900000709e+10  1.497009127196723e+01
2.032290800000711e+10  1.483147823747878e+01
2.039250700000714e+10  1.469395761604101e+01
2.046210600000717e+10  1.455752410121126e+01
2.053170500000720e+10  1.442217234810853e+01
2.060130400000722e+10  1.428789697499871e+01
2.067090300000725e+10  1.415469256485536e+01
2.074050200000728e+10  1.402255366689586e+01
2.081010100000730e+10  1.389147479809333e+01
2.087970000000732e+10  1.376145044466428e+01
2.094929900000735e+10  1.363247506353217e+01
2.101889800000738e+10  1.350454308376702e+01
2.108849700000740e+10  1.337764890800113e+01
2.115809600000743e+10  1.325178691382127e+01
2.122769500000746e+10  1.312695145513713e+01
2.129729400000748e+10  1.300313686352660e+01
2.136689300000751e+10  1.288033744955772e+01
2.143649200000753e+10  1.275854750408756e+01
2.150609100000756e+10  1.263776129953832e+01
2.157569000000759e+10  1.251797309115060e+01
2.164528900000761e+10  1.239917711821422e+01
2.171488800000764e+10  1.228136760527662e+01
2.178448700000766e+10  1.216453876332912e+01
2.185408600000769e+10  1.204868479097113e+01
2.192368500000772e+10  1.193379987555269e+01
2.199328400000774e+10  1.181987819429520e+01
2.206288300000777e+10  1.170691391539091e+01
2.213248200000779e+10  1.159490119908108e+01
2.220208100000782e+10  1.148383419871317e+01
2.227168000000785e+10  1.137370706177718e+01
2.234127900000787e+10  1.126451393092136e+01
2.241087800000790e+10  1.115624894494757e+01
2.248047700000792e+10  1.104890623978634e+01
2.255007600000795e+10  1.094247994945205e+01
2.261967500000798e+10  1.083696420697816e+01
2.268927400000800e+10  1.073235314533304e+01
2.275887300000803e+10  1.062864089831631e+01
2.282847200000806e+10  1.052582160143607e+01
2.289807100000808e+10  1.042388939276725e+01
2.296767000000811e+10  1.032283841379111e+01
2.303726900000813e+10  1.022266281021638e+01
2.310686800000816e+10  1.012335673278204e+01
2.317646700000818e+10  1.002491433804201e+01
2.324606600000821e+10  9.927329789132056e+00
2.331566500000824e+10  9.830597256519034e+00
2.338526400000826e+10  9.734710918732707e+00
2.345486300000829e+10  9.639664963080390e+00
2.352446200000832e+10  9.545453586344607e+00
2.359406100000834e+10  9.452070995463998e+00
2.366366000000837e+10  9.359511408197688e+00
2.373325900000839e+10  9.267769053773346e+00
2.380285800000842e+10  9.176838173519123e+00
2.387245700000844e+10  9.086713021479724e+00
2.394205600000847e+10  8.997387865016808e+00
2.401165500000850e+10  8.908856985393937e+00
2.408125400000853e+10  8.821114678346290e+00
2.415085300000855e+10  8.734155254635379e+00
2.422045200000858e+10  8.647973040588928e+00
2.429005100000860e+10  8.562562378626184e+00
2.435965000000863e+10  8.477917627768860e+00
2.442924900000865e+10  8.394033164137886e+00
2.449884800000868e+10  8.310903381436225e+00
2.456844700000871e+10  8.228522691417950e+00
2.463804600000873e+10  8.146885524343766e+00
2.470764500000876e+10  8.065986329423222e+00
2.477724400000879e+10  7.985819575243793e+00
2.484684300000881e+10  7.906379750187057e+00
2.491644200000884e+10  7.827661362832130e+00
2.498604100000886e+10  7.749658942346638e+00
2.505564000000889e+10  7.672367038865341e+00
2.512523900000892e+10  7.595780223856662e+00
2.519483800000894e+10  7.519893090477308e+00
2.526443700000897e+10  7.444700253915177e+00
2.533403600000900e+10  7.370196351720735e+00
2.540363500000902e+10  7.296376044127089e+00
2.547323400000905e+10  7.223234014358899e+00
2.554283300000907e+10  7.150764968930369e+00
2.561243200000910e+10  7.078963637932484e+00
2.568203100000912e+10  7.007824775309659e+00
2.575163000000915e+10  6.937343159126033e+00
2.582122900000917e+10  6.867513591821545e+00
2.589082800000920e+10  6.798330900458004e+00
2.596042700000923e+10  6.729789936955329e+00
2.603002600000925e+10  6.661885578318112e+00
2.609962500000928e+10  6.594612726852723e+00
2.616922400000930e+10  6.527966310375094e+00
2.623882300000933e+10  6.461941282409379e+00
2.630842200000936e+10  6.396532622377648e+00
2.637802100000938e+10  6.331735335780794e+00
2.644762000000941e+10  6.267544454370810e+00
2.651721900000943e+10  6.203955036314613e+00
2.658681800000946e+10  6.140962166349566e+00
2.665641700000949e+10  6.078560955930881e+00
2.672601600000951e+10  6.016746543371031e+00
2.679561500000954e+10  5.955514093971361e+00
2.686521400000957e+10  5.894858800146042e+00
2.693481300000959e+10  5.834775881538513e+00
2.700441200000962e+10  5.775260585130572e+00
2.707401100000964e+10  5.716308185344279e+00
2.714361000000967e+10  5.657913984136796e+00
2.721320900000969e+10  5.600073311088329e+00
2.728280800000972e+10  5.542781523483305e+00
2.735240700000975e+10  5.486034006384942e+00
2.742200600000977e+10  5.429826172703328e+00
2.749160500000980e+10  5.374153463257194e+00
2.756120400000983e+10  5.319011346829449e+00
2.763080300000985e+10  5.264395320216694e+00
2.770040200000988e+10  5.210300908272778e+00
2.777000100000990e+10  5.156723663946570e+00
2.783960000000993e+10  5.103659168314074e+00
2.790919900000996e+10  5.051103030604986e+00
2.797879800000998e+10  4.999050888223853e+00
2.804839700001001e+10  4.947498406765950e+00
2.811799600001004e+10  4.896441280027979e+00
2.818759500001006e+10  4.845875230013739e+00
2.825719400001009e+10  4.795796006934874e+00
2.832679300001011e+10  4.746199389206796e+00
2.839639200001014e+10  4.697081183439946e+00
2.846599100001016e+10  4.648437224426457e+00
2.853559000001019e+10  4.600263375122376e+00
2.860518900001022e+10  4.552555526625502e+00
2.867478800001025e+10  4.505309598149012e+00
2.874438700001027e+10  4.458521536990933e+00
2.881398600001030e+10  4.412187318499584e+00
2.888358500001032e+10  4.366302946035099e+00
2.895318400001035e+10  4.320864450927112e+00
2.902278300001037e+10  4.275867892428727e+00
2.909238200001040e+10  4.231309357666863e+00
2.916198100001043e+10  4.187184961589058e+00
2.923158000001045e+10  4.143490846906848e+00
2.930117900001048e+10  4.100223184035814e+00
2.937077800001051e+10  4.057378171032366e+00
2.944037700001053e+10  4.014952033527383e+00
2.950997600001056e+10  3.972941024656778e+00
2.957957500001058e+10  3.931341424989094e+00
2.964917400001061e+10  3.890149542450195e+00
2.971877300001063e+10  3.849361712245162e+00
2.978837200001066e+10  3.808974296777447e+00
2.985797100001069e+10  3.768983685565405e+00
2.992757000001071e+10  3.729386295156249e+00
2.999716900001074e+10  3.690178569037517e+00
3.006676800001077e+10  3.651356977546151e+00
3.013636700001079e+10  3.612918017775230e+00
3.020596600001082e+10  3.574858213478453e+00
3.027556500001084e+10  3.537174114972437e+00
3.034516400001087e+10  3.499862299036908e+00
3.041476300001090e+10  3.462919368812851e+00
3.048436200001092e+10  3.426341953698691e+00
3.055396100001094e+10  3.390126709244564e+00
3.062356000001097e+10  3.354270317044760e+00
